Dose(Gy)         ln(S)        Survival      DoseB(Gy)            RBE   depth(slice)
9.54359       -6.49475     0.00151136        9.54359              1              0
9.64169       -6.60641     0.00135168        9.64169              1              1
9.701       -6.67268       0.001265          9.701              1              2
9.7994       -6.77561     0.00114127         9.7994              1              3
9.85439       -6.84002     0.00107009        9.85439              1              4
9.87959       -6.86818     0.00104037        9.87959              1              5
9.96618       -6.96174    0.000947447        9.96618              1              6
10.015       -7.02025    0.000893599         10.015              1              7
10.0675       -7.07869    0.000842874        10.0675              1              8
10.1105       -7.12708    0.000803063        10.1105              1              9
10.1884       -7.21023     0.00073899        10.1884              1             10
10.2221       -7.24686    0.000712404        10.2221              1             11
10.297        -7.3281    0.000656823         10.297              1             12
10.3257       -7.36241    0.000634666        10.3257              1             13
10.4011       -7.44399    0.000584947        10.4011              1             14
10.4534       -7.50446    0.000550625        10.4534              1             15
10.5198       -7.57434    0.000513461        10.5198              1             16
10.5499       -7.61154     0.00049471        10.5499              1             17
10.5873       -7.65333     0.00047446        10.5873              1             18
10.65       -7.72274    0.000442647          10.65              1             19
10.7012       -7.77868    0.000418564        10.7012              1             20
10.7604       -7.84325     0.00039239        10.7604              1             21
10.8206        -7.9106    0.000366833        10.8206              1             22
10.8773        -7.9718    0.000345056        10.8773              1             23
10.9185       -8.02245    0.000328015        10.9185              1             24
10.9947       -8.10168     0.00030303        10.9947              1             25
11.0807       -8.19631    0.000275668        11.0807              1             26
11.1407        -8.2636     0.00025773        11.1407              1             27
11.1954       -8.32007    0.000243578        11.1954              1             28
11.2458       -8.38286    0.000228756        11.2458              1             29
11.3087       -8.44855    0.000214211        11.3087              1             30
11.3579       -8.50516    0.000202421        11.3579              1             31
11.4171       -8.57245    0.000189248        11.4171              1             32
11.4914       -8.65109    0.000174936        11.4914              1             33
11.5377       -8.70536    0.000165695        11.5377              1             34
11.602       -8.77602    0.000154391         11.602              1             35
11.6547        -8.8358    0.000145432        11.6547              1             36
11.7358       -8.92727     0.00013272        11.7358              1             37
11.7966       -8.99107    0.000124517        11.7966              1             38
11.8528       -9.05404    0.000116918        11.8528              1             39
11.9549       -9.16826    0.000104298        11.9549              1             40
12.0085       -9.22978    9.80746e-05        12.0085              1             41
12.1044       -9.33334    8.84262e-05        12.1044              1             42
12.1936       -9.43053    8.02367e-05        12.1936              1             43
12.2539       -9.49784    7.50139e-05        12.2539              1             44
12.3154       -9.56702    6.99998e-05        12.3154              1             45
12.384       -9.64339     6.4853e-05         12.384              1             46
12.4807        -9.7535     5.8091e-05        12.4807              1             47
12.5429       -9.81905    5.44053e-05        12.5429              1             48
12.6246       -9.91206    4.95732e-05        12.6246              1             49
12.7203       -10.0166    4.46514e-05        12.7203              1             50
12.7969       -10.1024    4.09826e-05        12.7969              1             51
12.9067       -10.2234      3.631e-05        12.9067              1             52
13.0222       -10.3507    3.19713e-05        13.0222              1             53
13.1347       -10.4742    2.82564e-05        13.1347              1             54
13.2234       -10.5759    2.55249e-05        13.2234              1             55
13.3278       -10.6875    2.28295e-05        13.3278              1             56
13.4503       -10.8236    1.99233e-05        13.4503              1             57
13.5748       -10.9623    1.73429e-05        13.5748              1             58
13.6784       -11.0795    1.54259e-05        13.6784              1             59
13.8112       -11.2234    1.33583e-05        13.8112              1             60
13.9598       -11.3875    1.13367e-05        13.9598              1             61
14.0937       -11.5384    9.74815e-06        14.0937              1             62
14.2335       -11.6946    8.33889e-06        14.2335              1             63
14.4104       -11.8877    6.87476e-06        14.4104              1             64
14.5751       -12.0673    5.74452e-06        14.5751              1             65
14.7502       -12.2634     4.7212e-06        14.7502              1             66
14.9539       -12.4884    3.77015e-06        14.9539              1             67
15.154       -12.7141    3.00848e-06         15.154              1             68
15.3853       -12.9679    2.33415e-06        15.3853              1             69
15.6421       -13.2518    1.75717e-06        15.6421              1             70
15.8906       -13.5292    1.33144e-06        15.8906              1             71
16.1887        -13.861    9.55519e-07        16.1887              1             72
16.5231        -14.231    6.60033e-07        16.5231              1             73
16.9116       -14.6645    4.27839e-07        16.9116              1             74
17.3888        -15.196    2.51458e-07        17.3888              1             75
17.9684       -15.8194    1.34816e-07        17.9684              1             76
18.3438       -16.2102    9.12007e-08        18.3438              1             77
18.4332       -16.2977    8.35635e-08        18.4332              1             78
18.4016       -16.2633    8.64869e-08        18.4016              1             79
18.3412       -16.1996    9.21767e-08        18.3412              1             80
18.2599       -16.1195    9.98621e-08        18.2599              1             81
18.2696       -16.1315    9.86731e-08        18.2696              1             82
18.2431        -16.108    1.01019e-07        18.2431              1             83
18.2081       -16.0738    1.04534e-07        18.2081              1             84
18.1599       -16.0277    1.09466e-07        18.1599              1             85
18.1583       -16.0286    1.09364e-07        18.1583              1             86
18.1142        -15.983    1.14463e-07        18.1142              1             87
18.1141       -15.9885    1.13832e-07        18.1141              1             88
18.0573        -15.932    1.20455e-07        18.0573              1             89
18.0335       -15.9147    1.22553e-07        18.0335              1             90
18.0371       -15.9189    1.22048e-07        18.0371              1             91
18.0213       -15.9072    1.23478e-07        18.0213              1             92
17.9715       -15.8575    1.29775e-07        17.9715              1             93
17.9698        -15.859    1.29575e-07        17.9698              1             94
17.9099       -15.7981    1.37711e-07        17.9099              1             95
17.8682       -15.7685    1.41851e-07        17.8682              1             96
17.8463        -15.746     1.4508e-07        17.8463              1             97
17.8151         -15.72      1.489e-07        17.8151              1             98
17.8124       -15.7198    1.48927e-07        17.8124              1             99
17.7465       -15.6556    1.58801e-07        17.7465              1            100
17.732       -15.6496    1.59754e-07         17.732              1            101
17.7135       -15.6309    1.62769e-07        17.7135              1            102
17.6754       -15.6021    1.67532e-07        17.6754              1            103
17.6775       -15.6083    1.66502e-07        17.6775              1            104
17.6181       -15.5529    1.75984e-07        17.6181              1            105
17.6096       -15.5514    1.76246e-07        17.6096              1            106
17.5824       -15.5278    1.80455e-07        17.5824              1            107
17.5252       -15.4818    1.88956e-07        17.5252              1            108
17.5334       -15.4965    1.86199e-07        17.5334              1            109
17.4658       -15.4328    1.98426e-07        17.4658              1            110
17.4049        -15.379    2.09406e-07        17.4049              1            111
17.376       -15.3586    2.13721e-07         17.376              1            112
17.2951       -15.2871     2.2956e-07        17.2951              1            113
17.2302       -15.2284    2.43443e-07        17.2302              1            114
17.1588       -15.1643    2.59563e-07        17.1588              1            115
17.1132       -15.1319    2.68091e-07        17.1132              1            116
17.0237       -15.0477    2.91644e-07        17.0237              1            117
16.8951       -14.9209    3.31067e-07        16.8951              1            118
16.737       -14.7784    3.81807e-07         16.737              1            119
16.5799       -14.6194    4.47586e-07        16.5799              1            120
16.2788       -14.3116    6.08904e-07        16.2788              1            121
15.881       -13.8912    9.27132e-07         15.881              1            122
15.0149       -12.9377    2.40554e-06        15.0149              1            123
13.3672       -11.0997    1.51172e-05        13.3672              1            124
10.3169       -7.69381     0.00045564        10.3169              1            125
6.39189       -3.83159      0.0216751        7.12697          1.115            126
2.8543       -1.47671       0.228388        4.12834        1.44636            127
0.908703      -0.434231       0.647762        1.92542        2.11887            128
0.202053     -0.0908539       0.913151       0.617774        3.05748            129
0.0391892     -0.0156723        0.98445       0.132849        3.38994            130
0.0167229    -0.00610821        0.99391       0.053942        3.22563            131
0.0196173    -0.00595888       0.994059      0.0526591        2.68432            132
0.0169308    -0.00659992       0.993422      0.0581545        3.43484            133
0.0174974    -0.00622638       0.993793      0.0549561        3.14082            134
0.017847     -0.0065014        0.99352       0.057312        3.21129            135
0.0184087    -0.00597756        0.99404      0.0528197        2.86927            136
0.0170284    -0.00583069       0.994186      0.0515564        3.02768            137
0.019114    -0.00659248       0.993429       0.058091        3.03918            138
0.0143615    -0.00502536       0.994987      0.0446001        3.10553            139
0.01829    -0.00699465        0.99303      0.0615231        3.36376            140
0.0174959    -0.00653989       0.993481      0.0576412        3.29456            141
0.0161873    -0.00522818       0.994785      0.0463568        2.86377            142
0.0174322     -0.0059971       0.994021      0.0529876        3.03964            143
0.0163535     -0.0052107       0.994803      0.0462055        2.82542            144
0.0200779     -0.0074089       0.992618      0.0650458        3.23967            145
0.0152826    -0.00541758       0.994597      0.0479943        3.14046            146
0.0175612     -0.0063528       0.993667      0.0560397         3.1911            147
0.0177221    -0.00641674       0.993604      0.0565873        3.19305            148
0.0123646    -0.00417951       0.995829      0.0372391        3.01174            149
0.0139493    -0.00479118        0.99522      0.0425678        3.05161            150
0.0134656    -0.00488652       0.995125      0.0433957        3.22272            151
0.014623     -0.0051169       0.994896      0.0453933        3.10424            152
0.0146733    -0.00505818       0.994955      0.0448846        3.05892            153
0.0157136    -0.00574971       0.994267      0.0508592        3.23664            154
0.0148893    -0.00547145       0.994543      0.0484596        3.25466            155
0.0155878    -0.00594234       0.994075      0.0525169        3.36911            156
0.0135487    -0.00495402       0.995058      0.0439815        3.24617            157
0.0126861     -0.0042811       0.995728      0.0381262        3.00536            158
0.0127166    -0.00486713       0.995145      0.0432274        3.39929            159
0.0113487    -0.00382534       0.996182      0.0341401        3.00829            160
0.014101    -0.00515893       0.994854      0.0457574        3.24497            161
0.0142745    -0.00563376       0.994382        0.04986        3.49294            162
0.0094671    -0.00304258       0.996962      0.0272546        2.87888            163
0.0156391    -0.00643373       0.993587      0.0567328        3.62762            164
0.00980734     -0.0034932       0.996513      0.0312245         3.1838            165
0.0122044    -0.00367415       0.996333      0.0328141        2.68872            166
0.0110573    -0.00340212       0.996604      0.0304235        2.75144            167
0.0111968    -0.00394861       0.996059      0.0352198        3.14554            168
0.012924    -0.00450407       0.995506      0.0400703        3.10047            169
0.0136459    -0.00503696       0.994976      0.0447006        3.27575            170
0.0120034    -0.00436252       0.995647      0.0388366        3.23546            171
0.0114987    -0.00403029       0.995978      0.0359346         3.1251            172
0.0120277    -0.00451718       0.995493      0.0401844        3.34099            173
0.0109676    -0.00364164       0.996365      0.0325286        2.96589            174
0.0131997    -0.00458742       0.995423       0.040796        3.09067            175
0.0120772    -0.00434156       0.995668      0.0386537        3.20055            176
0.0136859    -0.00505137       0.994961      0.0448256        3.27531            177
0.00978278    -0.00352422       0.996482      0.0314973        3.21966            178
0.0104075    -0.00388279       0.996125      0.0346435         3.3287            179
0.0109594    -0.00410366       0.995905      0.0365763        3.33744            180
0.0129482    -0.00450293       0.995507      0.0400604        3.09389            181
0.0105262    -0.00386035       0.996147      0.0344469         3.2725            182
0.010984    -0.00384432       0.996163      0.0343064         3.1233            183
0.0160798    -0.00645899       0.993562       0.056949        3.54164            184
0.0141579     -0.0046616       0.995349      0.0414415        2.92708            185
0.0112148    -0.00416728       0.995841      0.0371323        3.31102            186
0.0118689    -0.00456371       0.995447      0.0405896        3.41984            187
0.0102809    -0.00384387       0.996164      0.0343024        3.33654            188
0.0104313     -0.0042194       0.995789      0.0375875        3.60333            189
0.0112821    -0.00431819       0.995691      0.0384499        3.40806            190
0.0113726     -0.0042082       0.995801      0.0374897         3.2965            191
0.0101969    -0.00384229       0.996165      0.0342886        3.36265            192
0.00995656    -0.00377949       0.996228      0.0337382        3.38854            193
0.0091878    -0.00305239       0.996952      0.0273412        2.97582            194
0.00890086    -0.00341232       0.996593      0.0305132        3.42812            195
0.00891772    -0.00292707       0.997077      0.0262343        2.94182            196
0.0083718     -0.0029573       0.997047      0.0265015        3.16557            197
0.00955579      -0.003218       0.996787      0.0288021         3.0141            198
0.0110976    -0.00473535       0.995276      0.0420826        3.79203            199
